# ECG Data Recording
# Format: sample_number,time(s),voltage(V)
# Sample rate: ~200 Hz
# Target duration: 10 seconds
0,0.000001,1.960000
1,0.006643,1.668000
2,0.013765,1.496000
3,0.020859,2.202000
4,0.027914,1.626000
5,0.034955,1.430000
6,0.041998,1.822000
7,0.049053,1.186000
8,0.056120,1.370000
9,0.063179,1.732000
10,0.070229,1.198000
11,0.077282,1.632000
12,0.084325,1.762000
13,0.091368,1.276000
14,0.098409,1.860000
15,0.105451,1.732000
16,0.112498,1.312000
17,0.119541,1.994000
18,0.126581,1.642000
19,0.133645,1.352000
20,0.140701,2.040000
21,0.147754,1.558000
22,0.154800,1.474000
23,0.161843,2.044000
24,0.168883,1.496000
25,0.175922,1.636000
26,0.182964,2.008000
27,0.190003,1.446000
28,0.197057,1.804000
29,0.204102,1.958000
30,0.211150,1.430000
31,0.218191,1.972000
32,0.225239,1.894000
33,0.232284,1.452000
34,0.239324,2.124000
35,0.246367,1.818000
36,0.253413,1.490000
37,0.260453,2.202000
38,0.267489,1.728000
39,0.274531,1.558000
40,0.281572,2.156000
41,0.288616,1.578000
42,0.295691,1.640000
43,0.302744,2.040000
44,0.310277,1.410000
45,0.317327,1.788000
46,0.324369,1.866000
47,0.331410,1.318000
48,0.338447,1.878000
49,0.345486,1.722000
50,0.352525,1.272000
51,0.359564,1.956000
52,0.366605,1.594000
53,0.373642,1.286000
54,0.380683,1.986000
55,0.387720,1.494000
56,0.394760,1.386000
57,0.401801,1.978000
58,0.408840,1.416000
59,0.415881,1.546000
60,0.422941,1.952000
61,0.429988,1.384000
62,0.437037,1.748000
63,0.444124,1.920000
64,0.451177,1.372000
65,0.458225,1.918000
66,0.465267,1.834000
67,0.472307,1.370000
68,0.479349,2.038000
69,0.486391,1.718000
70,0.493432,1.366000
71,0.500471,2.066000
72,0.507512,1.590000
73,0.514551,1.430000
74,0.521591,2.044000
75,0.528631,1.486000
76,0.535672,1.562000
77,0.542708,1.998000
78,0.549748,1.412000
79,0.556790,1.702000
80,0.563828,1.920000
81,0.570868,1.352000
82,0.577906,1.830000
83,0.584947,1.810000
84,0.591997,1.306000
85,0.599041,1.934000
86,0.606081,1.660000
87,0.613120,1.262000
88,0.620158,1.966000
89,0.627198,1.526000
90,0.634237,1.308000
91,0.641274,1.968000
92,0.648319,1.430000
93,0.655365,1.434000
94,0.662403,1.930000
95,0.669443,1.354000
96,0.676483,1.592000
97,0.683519,1.878000
98,0.690559,1.296000
99,0.697599,1.732000
100,0.704664,1.782000
101,0.711712,1.260000
102,0.718758,1.868000
103,0.725801,1.664000
104,0.732841,1.240000
105,0.739882,1.942000
106,0.746921,1.538000
107,0.753956,1.268000
108,0.760997,1.960000
109,0.768035,1.446000
110,0.775077,1.394000
111,0.782118,1.956000
112,0.789158,1.392000
113,0.796235,1.584000
114,0.803300,1.930000
115,0.810351,1.350000
116,0.817393,1.752000
117,0.824434,1.860000
118,0.831476,1.318000
119,0.838516,1.884000
120,0.845562,1.736000
121,0.852606,1.266000
122,0.859648,1.942000
123,0.866685,1.564000
124,0.873725,1.244000
125,0.880765,1.950000
126,0.887807,1.446000
127,0.894851,1.334000
128,0.901890,1.934000
129,0.908930,1.370000
130,0.915969,1.502000
131,0.923007,1.918000
132,0.930046,1.378000
133,0.937084,1.826000
134,0.944131,2.102000
135,0.951174,1.548000
136,0.958215,1.974000
137,0.965260,1.764000
138,0.972303,1.140000
139,0.979344,1.754000
140,0.986383,1.454000
141,0.993423,1.136000
142,1.000462,1.902000
143,1.007504,1.466000
144,1.014550,1.318000
145,1.021591,1.986000
146,1.028631,1.446000
147,1.035673,1.520000
148,1.042711,1.998000
149,1.049748,1.424000
150,1.056790,1.720000
151,1.063828,1.980000
152,1.070864,1.416000
153,1.077904,1.906000
154,1.084944,1.924000
155,1.091982,1.416000
156,1.099030,2.054000
157,1.106073,1.810000
158,1.113112,1.408000
159,1.120153,2.134000
160,1.127192,1.714000
161,1.134233,1.482000
162,1.141275,2.174000
163,1.148321,1.656000
164,1.155363,1.654000
165,1.162407,2.196000
166,1.169450,1.634000
167,1.176489,1.858000
168,1.183530,2.170000
169,1.190568,1.582000
170,1.197609,1.996000
171,1.204651,2.062000
172,1.211693,1.504000
173,1.218737,2.062000
174,1.225781,1.852000
175,1.232821,1.374000
176,1.239862,2.036000
177,1.246902,1.614000
178,1.253947,1.286000
179,1.260988,1.954000
180,1.268028,1.420000
181,1.275063,1.320000
182,1.282104,1.876000
183,1.289143,1.296000
184,1.296182,1.446000
185,1.303221,1.818000
186,1.310261,1.234000
187,1.317300,1.598000
188,1.324339,1.750000
189,1.331382,1.206000
190,1.338422,1.714000
191,1.345459,1.594000
192,1.352499,1.146000
193,1.359543,1.790000
194,1.366583,1.470000
195,1.373626,1.158000
196,1.380666,1.852000
197,1.387705,1.398000
198,1.394746,1.264000
199,1.401792,1.848000
200,1.408858,1.316000
201,1.415903,1.406000
202,1.422964,1.804000
203,1.430008,1.254000
204,1.437049,1.558000
205,1.444090,1.740000
206,1.451131,1.216000
207,1.458171,1.696000
208,1.465210,1.658000
209,1.472250,1.204000
210,1.479292,1.832000
211,1.486333,1.554000
212,1.493379,1.198000
213,1.500417,1.882000
214,1.507457,1.444000
215,1.514497,1.252000
216,1.521536,1.870000
217,1.533743,1.192000
218,1.540818,1.876000
219,1.547864,1.408000
220,1.554903,1.302000
221,1.561945,1.900000
222,1.568986,1.368000
223,1.576026,1.484000
224,1.583069,1.896000
225,1.590109,1.330000
226,1.597151,1.650000
227,1.604195,1.838000
228,1.611236,1.300000
229,1.618273,1.796000
230,1.625315,1.742000
231,1.632385,1.266000
232,1.639439,1.906000
233,1.646485,1.612000
234,1.653526,1.262000
235,1.660565,1.956000
236,1.667604,1.506000
237,1.674634,1.332000
238,1.681676,1.954000
239,1.688720,1.412000
240,1.695759,1.458000
241,1.702800,1.902000
242,1.709839,1.336000
243,1.716879,1.604000
244,1.723920,1.834000
245,1.730963,1.268000
246,1.737999,1.710000
247,1.745038,1.714000
248,1.752079,1.216000
249,1.759118,1.812000
250,1.766157,1.574000
251,1.773196,1.180000
252,1.780236,1.870000
253,1.787273,1.454000
254,1.794313,1.226000
255,1.801354,1.886000
256,1.808393,1.374000
257,1.815436,1.352000
258,1.822477,1.864000
259,1.829515,1.314000
260,1.836558,1.528000
261,1.843599,1.878000
262,1.850634,1.418000
263,1.857675,1.916000
264,1.864722,2.026000
265,1.871765,1.428000
266,1.878859,1.844000
267,1.885921,1.538000
268,1.892968,1.080000
269,1.900009,1.768000
270,1.907051,1.436000
271,1.914092,1.212000
272,1.921135,1.912000
273,1.928176,1.454000
274,1.935218,1.414000
275,1.942288,1.978000
276,1.949349,1.456000
277,1.956395,1.644000
278,1.963437,1.998000
279,1.970480,1.466000
280,1.977522,1.850000
281,1.984564,1.972000
282,1.991604,1.472000
283,1.998646,2.006000
284,2.005691,1.888000
285,2.012739,1.464000
286,2.019781,2.116000
287,2.026823,1.788000
288,2.033866,1.496000
289,2.040909,2.180000
290,2.047949,1.726000
291,2.054990,1.626000
292,2.062035,2.214000
293,2.069079,1.704000
294,2.076119,1.834000
295,2.083161,2.240000
296,2.090204,1.708000
297,2.097251,2.032000
298,2.104296,2.210000
299,2.111338,1.674000
300,2.118405,2.146000
301,2.125453,2.054000
302,2.132495,1.568000
303,2.139538,2.150000
304,2.146585,1.808000
305,2.153639,1.430000
306,2.160692,2.060000
307,2.167734,1.578000
308,2.174778,1.398000
309,2.181820,1.972000
310,2.188862,1.428000
311,2.195903,1.478000
312,2.202948,1.888000
313,2.209985,1.324000
314,2.217031,1.596000
315,2.224071,1.806000
316,2.231110,1.270000
317,2.238152,1.724000
318,2.245193,1.714000
319,2.252234,1.248000
320,2.259275,1.846000
321,2.266315,1.596000
322,2.273352,1.232000
323,2.280400,1.914000
324,2.287442,1.498000
325,2.294481,1.290000
326,2.301521,1.920000
327,2.308562,1.408000
328,2.315602,1.404000
329,2.322639,1.874000
330,2.329682,1.326000
331,2.336732,1.546000
332,2.343772,1.820000
333,2.350815,1.276000
334,2.357855,1.688000
335,2.364897,1.742000
336,2.371935,1.254000
337,2.378978,1.818000
338,2.386021,1.624000
339,2.393062,1.216000
340,2.400104,1.872000
341,2.407146,1.492000
342,2.414183,1.236000
343,2.421249,1.890000
344,2.428308,1.388000
345,2.435364,1.330000
346,2.442406,1.844000
347,2.449451,1.300000
348,2.456492,1.472000
349,2.463537,1.794000
350,2.470579,1.258000
351,2.477622,1.640000
352,2.484662,1.744000
353,2.491701,1.244000
354,2.498737,1.778000
355,2.505779,1.648000
356,2.512819,1.230000
357,2.519859,1.878000
358,2.526898,1.538000
359,2.533938,1.250000
360,2.540981,1.920000
361,2.548022,1.452000
362,2.555060,1.338000
363,2.562102,1.900000
364,2.569142,1.360000
365,2.576182,1.474000
366,2.583223,1.856000
367,2.590264,1.310000
368,2.597304,1.630000
369,2.604345,1.802000
370,2.611383,1.288000
371,2.618423,1.776000
372,2.625460,1.722000
373,2.632565,1.268000
374,2.639630,1.898000
375,2.646649,1.596000
376,2.653784,1.274000
377,2.660853,1.950000
378,2.667907,1.492000
379,2.674964,1.354000
380,2.682034,1.930000
381,2.689089,1.400000
382,2.696141,1.498000
383,2.703215,1.878000
384,2.710312,1.318000
385,2.717933,1.708000
386,2.725168,1.724000
387,2.732264,1.246000
388,2.739325,1.840000
389,2.746793,1.540000
390,2.753863,1.222000
391,2.760909,1.888000
392,2.767992,1.424000
393,2.775052,1.310000
394,2.782093,1.906000
395,2.789143,1.442000
396,2.796228,1.654000
397,2.803277,2.092000
398,2.810324,1.500000
399,2.817402,1.694000
400,2.824528,1.694000
401,2.831593,1.084000
402,2.838670,1.608000
403,2.845737,1.554000
404,2.852781,1.190000
405,2.859827,1.884000
406,2.866868,1.608000
407,2.873911,1.350000
408,2.880953,2.050000
409,2.887996,1.610000
410,2.895097,1.506000
411,2.902226,2.076000
412,2.909363,1.546000
413,2.916428,1.700000
414,2.923473,2.056000
415,2.930520,1.522000
416,2.937564,1.896000
417,2.944648,2.036000
418,2.951705,1.542000
419,2.958753,2.082000
420,2.965796,1.986000
421,2.972838,1.586000
422,2.979879,2.246000
423,2.986921,1.938000
424,2.993962,1.668000
425,3.001004,2.374000
426,3.008044,1.954000
427,3.015086,1.874000
428,3.022126,2.494000
429,3.029167,2.008000
430,3.036214,2.144000
431,3.043254,2.568000
432,3.050317,2.040000
433,3.057362,2.352000
434,3.064406,2.512000
435,3.071448,1.960000
436,3.078490,2.406000
437,3.085530,2.306000
438,3.092573,1.806000
439,3.099614,2.382000
440,3.106638,2.064000
441,3.113679,1.696000
442,3.120726,2.338000
443,3.127765,1.870000
444,3.134809,1.680000
445,3.141850,2.274000
446,3.148892,1.742000
447,3.155934,1.772000
448,3.162973,2.204000
449,3.170013,1.652000
450,3.177054,1.910000
451,3.184094,2.140000
452,3.191134,1.600000
453,3.198174,2.034000
454,3.205217,2.042000
455,3.212259,1.560000
456,3.219301,2.140000
457,3.226340,1.908000
458,3.233379,1.524000
459,3.240419,2.196000
460,3.247456,1.786000
461,3.254498,1.556000
462,3.261540,2.190000
463,3.268581,1.674000
464,3.275622,1.650000
465,3.282661,2.134000
466,3.289701,1.578000
467,3.296740,1.770000
468,3.303782,2.050000
469,3.310823,1.496000
470,3.317864,1.888000
471,3.324904,1.954000
472,3.331944,1.448000
473,3.338983,1.988000
474,3.346023,1.812000
475,3.353064,1.390000
476,3.360105,2.032000
477,3.367145,1.650000
478,3.374184,1.368000
479,3.381224,2.014000
480,3.388265,1.522000
481,3.395305,1.436000
482,3.402347,1.974000
483,3.409388,1.430000
484,3.416428,1.570000
485,3.423467,1.918000
486,3.430506,1.366000
487,3.437547,1.706000
488,3.444586,1.836000
489,3.451626,1.316000
490,3.458667,1.828000
491,3.465706,1.732000
492,3.472747,1.294000
493,3.479786,1.932000
494,3.486826,1.614000
495,3.493865,1.298000
496,3.500905,1.974000
497,3.507946,1.512000
498,3.514986,1.366000
499,3.522023,1.940000
500,3.529084,1.406000
501,3.536160,1.498000
502,3.543217,1.898000
503,3.550262,1.350000
504,3.557305,1.660000
505,3.564346,1.856000
506,3.571388,1.332000
507,3.578425,1.808000
508,3.585466,1.758000
509,3.592530,1.298000
510,3.599576,1.914000
511,3.606621,1.634000
512,3.613669,1.286000
513,3.620723,1.954000
514,3.627771,1.504000
515,3.634814,1.326000
516,3.641854,1.920000
517,3.648894,1.394000
518,3.655934,1.430000
519,3.662975,1.850000
520,3.670015,1.286000
521,3.677055,1.538000
522,3.684096,1.758000
523,3.691137,1.220000
524,3.698178,1.674000
525,3.705218,1.700000
526,3.712260,1.236000
527,3.719333,1.826000
528,3.726383,1.598000
529,3.733427,1.268000
530,3.740468,2.026000
531,3.747509,1.722000
532,3.754549,1.528000
533,3.761589,2.076000
534,3.768630,1.418000
535,3.775676,1.262000
536,3.782766,1.658000
537,3.789822,1.126000
538,3.796871,1.400000
539,3.803915,1.698000
540,3.810955,1.178000
541,3.818002,1.622000
542,3.825078,1.682000
543,3.832138,1.216000
544,3.839196,1.808000
545,3.846237,1.608000
546,3.853285,1.232000
547,3.860329,1.904000
548,3.867378,1.516000
549,3.874425,1.292000
550,3.881467,1.952000
551,3.888507,1.462000
552,3.895548,1.444000
553,3.902588,1.960000
554,3.909628,1.424000
555,3.916667,1.620000
556,3.923709,1.936000
557,3.930749,1.398000
558,3.937795,1.794000
559,3.944881,1.886000
560,3.951938,1.406000
561,3.958985,1.978000
562,3.966435,1.790000
563,3.973484,1.436000
564,3.980525,2.118000
565,3.987565,1.710000
566,3.994605,1.502000
567,4.001647,2.126000
568,4.008687,1.604000
569,4.015728,1.576000
570,4.022768,2.020000
571,4.029804,1.432000
572,4.036844,1.614000
573,4.043883,1.848000
574,4.050923,1.266000
575,4.057963,1.642000
576,4.065001,1.666000
577,4.072041,1.156000
578,4.079082,1.704000
579,4.086122,1.500000
580,4.093200,1.094000
581,4.100246,1.758000
582,4.107286,1.372000
583,4.114326,1.132000
584,4.121366,1.792000
585,4.128405,1.300000
586,4.135482,1.264000
587,4.142532,1.786000
588,4.149580,1.254000
589,4.156625,1.440000
590,4.163676,1.750000
591,4.170721,1.202000
592,4.177763,1.586000
593,4.184804,1.680000
594,4.191844,1.180000
595,4.198885,1.720000
596,4.205926,1.576000
597,4.212967,1.160000
598,4.220007,1.812000
599,4.227044,1.456000
600,4.234178,1.170000
601,4.241252,1.826000
602,4.248314,1.336000
603,4.255356,1.266000
604,4.262418,1.800000
605,4.269503,1.258000
606,4.276554,1.424000
607,4.283606,1.742000
608,4.290666,1.190000
609,4.297706,1.562000
610,4.304751,1.656000
611,4.311792,1.146000
612,4.318832,1.672000
613,4.325874,1.530000
614,4.332915,1.112000
615,4.339956,1.758000
616,4.346997,1.414000
617,4.354038,1.124000
618,4.361078,1.796000
619,4.368118,1.332000
620,4.375160,1.232000
621,4.382200,1.804000
622,4.389247,1.276000
623,4.396290,1.396000
624,4.403331,1.774000
625,4.410373,1.226000
626,4.417414,1.556000
627,4.424455,1.720000
628,4.431496,1.204000
629,4.438536,1.702000
630,4.445574,1.628000
631,4.452615,1.182000
632,4.459656,1.808000
633,4.466697,1.518000
634,4.473733,1.188000
635,4.480775,1.862000
636,4.487816,1.412000
637,4.494856,1.246000
638,4.501897,1.844000
639,4.508937,1.326000
640,4.515978,1.386000
641,4.523018,1.814000
642,4.530059,1.268000
643,4.537099,1.546000
644,4.544138,1.774000
645,4.551184,1.244000
646,4.558226,1.702000
647,4.565268,1.706000
648,4.572309,1.244000
649,4.579351,1.840000
650,4.586392,1.600000
651,4.593433,1.228000
652,4.600474,1.892000
653,4.607517,1.466000
654,4.614571,1.250000
655,4.621622,1.870000
656,4.628669,1.346000
657,4.635712,1.336000
658,4.642757,1.796000
659,4.649798,1.242000
660,4.656840,1.462000
661,4.663882,1.738000
662,4.670922,1.252000
663,4.677962,1.768000
664,4.685003,1.888000
665,4.692042,1.376000
666,4.699083,1.816000
667,4.706122,1.478000
668,4.713162,0.964000
669,4.720212,1.620000
670,4.727288,1.284000
671,4.734337,1.110000
672,4.741384,1.814000
673,4.748427,1.368000
674,4.755470,1.362000
675,4.762510,1.904000
676,4.769551,1.388000
677,4.776592,1.584000
678,4.783631,1.916000
679,4.790674,1.380000
680,4.797715,1.766000
681,4.804757,1.874000
682,4.811798,1.380000
683,4.818839,1.918000
684,4.825878,1.790000
685,4.832917,1.378000
686,4.839956,2.030000
687,4.846996,1.690000
688,4.854036,1.408000
689,4.861075,2.086000
690,4.868114,1.634000
691,4.875153,1.548000
692,4.882191,2.130000
693,4.889237,1.620000
694,4.896278,1.752000
695,4.903319,2.146000
696,4.910360,1.614000
697,4.917399,1.950000
698,4.924438,2.124000
699,4.931479,1.604000
700,4.938604,2.098000
701,4.945700,1.988000
702,4.952759,1.522000
703,4.959805,2.120000
704,4.966846,1.754000
705,4.973886,1.400000
706,4.980927,2.034000
707,4.987966,1.534000
708,4.995007,1.372000
709,5.002047,1.918000
710,5.009088,1.368000
711,5.016127,1.444000
712,5.023191,1.820000
713,5.030255,1.260000
714,5.037360,1.576000
715,5.044456,1.732000
716,5.051544,1.216000
717,5.058644,1.726000
718,5.065737,1.618000
719,5.072831,1.184000
720,5.079921,1.832000
721,5.087011,1.490000
722,5.094104,1.218000
723,5.101195,1.876000
724,5.108288,1.388000
725,5.115381,1.336000
726,5.122476,1.854000
727,5.129574,1.308000
728,5.136666,1.508000
729,5.143757,1.794000
730,5.150856,1.250000
731,5.157953,1.664000
732,5.165044,1.702000
733,5.172134,1.222000
734,5.179223,1.804000
735,5.186900,1.506000
736,5.193999,1.212000
737,5.201090,1.874000
738,5.208181,1.392000
739,5.215272,1.314000
740,5.222367,1.838000
741,5.229527,1.286000
742,5.236650,1.478000
743,5.243748,1.762000
744,5.250836,1.218000
745,5.257933,1.628000
746,5.265092,1.658000
747,5.272213,1.184000
748,5.279309,1.778000
749,5.286405,1.524000
750,5.293547,1.172000
751,5.300713,1.846000
752,5.307834,1.394000
753,5.314938,1.264000
754,5.322026,1.850000
755,5.329136,1.318000
756,5.336263,1.446000
757,5.343428,1.808000
758,5.350541,1.258000
759,5.357662,1.634000
760,5.364775,1.724000
761,5.371869,1.228000
762,5.378962,1.784000
763,5.386055,1.600000
764,5.393148,1.204000
765,5.400246,1.868000
766,5.407340,1.466000
767,5.414434,1.244000
768,5.421527,1.880000
769,5.428629,1.372000
770,5.435915,1.432000
771,5.443398,1.836000
772,5.450525,1.288000
773,5.457637,1.660000
774,5.464760,1.754000
775,5.471828,1.264000
776,5.479033,1.840000
777,5.486157,1.634000
778,5.493337,1.258000
779,5.500480,1.932000
780,5.507585,1.504000
781,5.514636,1.320000
782,5.521734,1.930000
783,5.528845,1.398000
784,5.535976,1.456000
785,5.543068,1.860000
786,5.550154,1.312000
787,5.557241,1.622000
788,5.564326,1.796000
789,5.571404,1.274000
790,5.578496,1.774000
791,5.585582,1.682000
792,5.592666,1.242000
793,5.599748,1.886000
794,5.606833,1.582000
795,5.613915,1.364000
796,5.620999,2.114000
797,5.628082,1.640000
798,5.635163,1.438000
799,5.642263,1.832000
800,5.649467,1.144000
801,5.656604,1.304000
802,5.663703,1.618000
803,5.670799,1.122000
804,5.677905,1.592000
805,5.685073,1.652000
806,5.692199,1.202000
807,5.699297,1.830000
808,5.706387,1.592000
809,5.713509,1.264000
810,5.720611,1.956000
811,5.727708,1.528000
812,5.734803,1.390000
813,5.741895,1.992000
814,5.748987,1.472000
815,5.756080,1.582000
816,5.763167,1.982000
817,5.770268,1.438000
818,5.777363,1.780000
819,5.784456,1.926000
820,5.791550,1.414000
821,5.798646,1.948000
822,5.805795,1.818000
823,5.812901,1.418000
824,5.819998,2.088000
825,5.827092,1.732000
826,5.834186,1.496000
827,5.841299,2.162000
828,5.848392,1.676000
829,5.855485,1.672000
830,5.862576,2.174000
831,5.869664,1.636000
832,5.876763,1.860000
833,5.883855,2.106000
834,5.890946,1.550000
835,5.898036,1.962000
836,5.905125,1.922000
837,5.912221,1.412000
838,5.919312,1.970000
839,5.926404,1.656000
840,5.933494,1.272000
841,5.940592,1.916000
842,5.947758,1.446000
843,5.954882,1.302000
844,5.961981,1.866000
845,5.969075,1.320000
846,5.976171,1.440000
847,5.983264,1.796000
848,5.990355,1.246000
849,5.997446,1.604000
850,6.004539,1.716000
851,6.011631,1.210000
852,6.018724,1.756000
853,6.025816,1.604000
854,6.032907,1.200000
855,6.040004,1.866000
856,6.047097,1.486000
857,6.054188,1.244000
858,6.061290,1.892000
859,6.068382,1.386000
860,6.075486,1.374000
861,6.082614,1.852000
862,6.089721,1.308000
863,6.096816,1.568000
864,6.103909,1.808000
865,6.111002,1.270000
866,6.118105,1.724000
867,6.125198,1.700000
868,6.132301,1.230000
869,6.139457,1.840000
870,6.146582,1.526000
871,6.153680,1.210000
872,6.160775,1.884000
873,6.167870,1.418000
874,6.174973,1.306000
875,6.182069,1.856000
876,6.189161,1.306000
877,6.196253,1.458000
878,6.203344,1.808000
879,6.210442,1.260000
880,6.217535,1.638000
881,6.224626,1.718000
882,6.231718,1.210000
883,6.238819,1.768000
884,6.245913,1.582000
885,6.253005,1.184000
886,6.260097,1.850000
887,6.267188,1.450000
888,6.274273,1.232000
889,6.281373,1.884000
890,6.288465,1.382000
891,6.295557,1.406000
892,6.302648,1.866000
893,6.309738,1.320000
894,6.316829,1.586000
895,6.323923,1.802000
896,6.331020,1.264000
897,6.338118,1.728000
898,6.345214,1.688000
899,6.352304,1.232000
900,6.359490,1.858000
901,6.366641,1.532000
902,6.373775,1.238000
903,6.380879,1.904000
904,6.387979,1.418000
905,6.395069,1.344000
906,6.402164,1.882000
907,6.409258,1.346000
908,6.416945,1.612000
909,6.424046,1.802000
910,6.431142,1.278000
911,6.438300,1.778000
912,6.445426,1.680000
913,6.452529,1.238000
914,6.459677,1.884000
915,6.466799,1.540000
916,6.473897,1.276000
917,6.480992,1.946000
918,6.488087,1.456000
919,6.495180,1.408000
920,6.502271,1.918000
921,6.509362,1.372000
922,6.516453,1.574000
923,6.523543,1.850000
924,6.530633,1.308000
925,6.537725,1.734000
926,6.544820,1.764000
927,6.551914,1.286000
928,6.559007,1.884000
929,6.566097,1.690000
930,6.573188,1.424000
931,6.580272,2.178000
932,6.587365,1.736000
933,6.594450,1.428000
934,6.601546,1.884000
935,6.608638,1.224000
936,6.615730,1.264000
937,6.622820,1.710000
938,6.629910,1.214000
939,6.637001,1.572000
940,6.644094,1.782000
941,6.651187,1.298000
942,6.658274,1.832000
943,6.665373,1.758000
944,6.672465,1.336000
945,6.679556,1.994000
946,6.686645,1.668000
947,6.693735,1.390000
948,6.700821,2.066000
949,6.707912,1.588000
950,6.715005,1.524000
951,6.722095,2.060000
952,6.729185,1.524000
953,6.736275,1.716000
954,6.743369,2.036000
955,6.750464,1.504000
956,6.757556,1.928000
957,6.764648,1.998000
958,6.771740,1.534000
959,6.778831,2.124000
960,6.785915,1.924000
961,6.793011,1.564000
962,6.800103,2.254000
963,6.807194,1.850000
964,6.814283,1.660000
965,6.821372,2.290000
966,6.828462,1.774000
967,6.835552,1.814000
968,6.842641,2.236000
969,6.849735,1.666000
970,6.856828,1.924000
971,6.863918,2.074000
972,6.871008,1.502000
973,6.878098,1.946000
974,6.885186,1.836000
975,6.892276,1.360000
976,6.899365,1.970000
977,6.906455,1.622000
978,6.913545,1.300000
979,6.920635,1.952000
980,6.927724,1.466000
981,6.934814,1.364000
982,6.941911,1.896000
983,6.949082,1.336000
984,6.956237,1.516000
985,6.963341,1.810000
986,6.970437,1.260000
987,6.977530,1.674000
988,6.984623,1.706000
989,6.991714,1.218000
990,6.998810,1.796000
991,7.005903,1.560000
992,7.012996,1.194000
993,7.020087,1.874000
994,7.027179,1.446000
995,7.034270,1.264000
996,7.041362,1.874000
997,7.048455,1.348000
998,7.055554,1.412000
999,7.062649,1.820000
1000,7.069849,1.266000
1001,7.076982,1.598000
1002,7.084080,1.738000
1003,7.091175,1.222000
1004,7.098269,1.750000
1005,7.105362,1.620000
1006,7.112455,1.200000
1007,7.119548,1.848000
1008,7.126642,1.478000
1009,7.133734,1.216000
1010,7.140831,1.872000
1011,7.147937,1.376000
1012,7.155047,1.350000
1013,7.162137,1.848000
1014,7.169235,1.304000
1015,7.176327,1.536000
1016,7.183427,1.802000
1017,7.190522,1.266000
1018,7.197621,1.706000
1019,7.204716,1.714000
1020,7.211812,1.246000
1021,7.218904,1.846000
1022,7.225996,1.574000
1023,7.233087,1.222000
1024,7.240183,1.900000
1025,7.247277,1.456000
1026,7.254372,1.312000
1027,7.261465,1.904000
1028,7.268559,1.378000
1029,7.275652,1.484000
1030,7.282744,1.870000
1031,7.289834,1.318000
1032,7.296927,1.656000
1033,7.304026,1.786000
1034,7.311119,1.268000
1035,7.318211,1.788000
1036,7.325304,1.648000
1037,7.332395,1.232000
1038,7.339488,1.884000
1039,7.346580,1.512000
1040,7.353673,1.242000
1041,7.360769,1.894000
1042,7.367860,1.394000
1043,7.374952,1.366000
1044,7.382044,1.870000
1045,7.389138,1.336000
1046,7.396238,1.566000
1047,7.403332,1.838000
1048,7.410425,1.300000
1049,7.417517,1.736000
1050,7.424608,1.742000
1051,7.431704,1.270000
1052,7.438812,1.876000
1053,7.445982,1.600000
1054,7.453113,1.258000
1055,7.460232,1.926000
1056,7.467328,1.460000
1057,7.474424,1.332000
1058,7.481520,1.906000
1059,7.488620,1.370000
1060,7.495809,1.516000
1061,7.502947,1.850000
1062,7.510057,1.306000
1063,7.517158,1.702000
1064,7.524255,1.792000
1065,7.531343,1.358000
1066,7.538450,2.028000
1067,7.545546,1.898000
1068,7.552639,1.484000
1069,7.559730,2.024000
1070,7.566822,1.460000
1071,7.573913,1.132000
1072,7.581009,1.740000
1073,7.588101,1.258000
1074,7.595193,1.344000
1075,7.602284,1.826000
1076,7.609380,1.314000
1077,7.616470,1.626000
1078,7.623566,1.844000
1079,7.630658,1.334000
1080,7.637750,1.832000
1081,7.645430,1.714000
1082,7.652536,1.332000
1083,7.659637,2.004000
1084,7.666732,1.598000
1085,7.673823,1.390000
1086,7.680911,2.028000
1087,7.688012,1.522000
1088,7.695106,1.556000
1089,7.702192,2.010000
1090,7.709291,1.468000
1091,7.716388,1.756000
1092,7.723478,1.974000
1093,7.730568,1.462000
1094,7.737659,1.960000
1095,7.744756,1.924000
1096,7.751847,1.484000
1097,7.758936,2.120000
1098,7.766028,1.822000
1099,7.773119,1.524000
1100,7.780323,2.208000
1101,7.787457,1.734000
1102,7.794588,1.662000
1103,7.801684,2.174000
1104,7.808776,1.610000
1105,7.815873,1.770000
1106,7.822969,2.030000
1107,7.830060,1.450000
1108,7.837152,1.822000
1109,7.844243,1.818000
1110,7.851333,1.294000
1111,7.858426,1.836000
1112,7.865521,1.576000
1113,7.872612,1.186000
1114,7.879768,1.852000
1115,7.886899,1.404000
1116,7.893998,1.234000
1117,7.901093,1.832000
1118,7.908186,1.298000
1119,7.915283,1.382000
1120,7.922374,1.772000
1121,7.929466,1.226000
1122,7.936557,1.562000
1123,7.943655,1.714000
1124,7.950829,1.206000
1125,7.958093,1.758000
1126,7.966072,1.482000
1127,7.973244,1.206000
1128,7.980370,1.862000
1129,7.987478,1.368000
1130,7.994573,1.330000
1131,8.001693,1.834000
1132,8.008790,1.292000
1133,8.015900,1.522000
1134,8.022996,1.794000
1135,8.030090,1.254000
1136,8.037183,1.698000
1137,8.044275,1.706000
1138,8.051367,1.228000
1139,8.058458,1.816000
1140,8.065560,1.552000
1141,8.072649,1.206000
1142,8.079728,1.882000
1143,8.086811,1.438000
1144,8.093897,1.280000
1145,8.100981,1.882000
1146,8.108065,1.358000
1147,8.115150,1.446000
1148,8.122236,1.838000
1149,8.129357,1.288000
1150,8.136479,1.628000
1151,8.143608,1.768000
1152,8.150713,1.268000
1153,8.157804,1.800000
1154,8.164891,1.662000
1155,8.171990,1.246000
1156,8.179077,1.896000
1157,8.186169,1.514000
1158,8.193275,1.258000
1159,8.200457,1.904000
1160,8.207742,1.380000
1161,8.214874,1.422000
1162,8.221978,1.848000
1163,8.229074,1.298000
1164,8.236165,1.590000
1165,8.243268,1.774000
1166,8.250365,1.250000
1167,8.257459,1.746000
1168,8.264556,1.670000
1169,8.271654,1.232000
1170,8.278747,1.860000
1171,8.285841,1.512000
1172,8.292935,1.204000
1173,8.300028,1.854000
1174,8.307117,1.354000
1175,8.314207,1.264000
1176,8.321296,1.780000
1177,8.328395,1.228000
1178,8.335488,1.404000
1179,8.342581,1.706000
1180,8.349674,1.160000
1181,8.356767,1.560000
1182,8.363865,1.612000
1183,8.370961,1.128000
1184,8.378056,1.708000
1185,8.385193,1.482000
1186,8.392316,1.116000
1187,8.399416,1.796000
1188,8.406512,1.368000
1189,8.413605,1.200000
1190,8.420701,1.814000
1191,8.427793,1.298000
1192,8.434895,1.382000
1193,8.441992,1.782000
1194,8.449086,1.226000
1195,8.456180,1.540000
1196,8.463271,1.692000
1197,8.470376,1.174000
1198,8.477472,1.688000
1199,8.484564,1.580000
1200,8.491702,1.156000
1201,8.498806,1.806000
1202,8.505916,1.442000
1203,8.513043,1.184000
1204,8.520137,1.828000
1205,8.527230,1.346000
1206,8.534326,1.388000
1207,8.541421,1.986000
1208,8.548513,1.502000
1209,8.555605,1.690000
1210,8.562696,1.818000
1211,8.569787,1.138000
1212,8.576886,1.478000
1213,8.583980,1.474000
1214,8.591072,1.052000
1215,8.598164,1.704000
1216,8.605257,1.474000
1217,8.612390,1.168000
1218,8.619501,1.870000
1219,8.626606,1.430000
1220,8.633710,1.318000
1221,8.640809,1.906000
1222,8.647908,1.382000
1223,8.655002,1.518000
1224,8.662094,1.886000
1225,8.669187,1.346000
1226,8.676282,1.722000
1227,8.683375,1.848000
1228,8.690467,1.358000
1229,8.697559,1.912000
1230,8.704648,1.764000
1231,8.711739,1.394000
1232,8.718831,2.086000
1233,8.725923,1.724000
1234,8.733017,1.508000
1235,8.740109,2.168000
1236,8.747200,1.676000
1237,8.754291,1.682000
1238,8.761384,2.170000
1239,8.768475,1.638000
1240,8.775571,1.900000
1241,8.782665,2.144000
1242,8.789758,1.610000
1243,8.796850,2.062000
1244,8.803940,2.022000
1245,8.811033,1.540000
1246,8.818130,2.124000
1247,8.825314,1.784000
1248,8.832487,1.434000
1249,8.839610,2.058000
1250,8.846717,1.542000
1251,8.853808,1.432000
1252,8.860909,1.934000
1253,8.868020,1.362000
1254,8.875725,1.600000
1255,8.882832,1.768000
1256,8.889925,1.234000
1257,8.897017,1.716000
1258,8.904108,1.626000
1259,8.911198,1.184000
1260,8.918288,1.818000
1261,8.925379,1.482000
1262,8.932470,1.188000
1263,8.939564,1.858000
1264,8.946750,1.368000
1265,8.953879,1.318000
1266,8.960982,1.828000
1267,8.968134,1.278000
1268,8.975256,1.502000
1269,8.982356,1.768000
1270,8.989451,1.238000
1271,8.996544,1.684000
1272,9.003638,1.698000
1273,9.010729,1.240000
1274,9.017821,1.844000
1275,9.024912,1.576000
1276,9.032001,1.234000
1277,9.039094,1.908000
1278,9.046188,1.464000
1279,9.053288,1.324000
1280,9.060381,1.918000
1281,9.067473,1.388000
1282,9.074562,1.496000
1283,9.081656,1.880000
1284,9.088756,1.338000
1285,9.095848,1.688000
1286,9.102938,1.828000
1287,9.110030,1.346000
1288,9.117122,1.892000
1289,9.124233,1.752000
1290,9.131329,1.342000
1291,9.138422,1.988000
1292,9.145514,1.602000
1293,9.152605,1.344000
1294,9.159703,1.980000
1295,9.166797,1.458000
1296,9.173889,1.430000
1297,9.180982,1.894000
1298,9.188081,1.332000
1299,9.195198,1.562000
1300,9.202315,1.776000
1301,9.209420,1.226000
1302,9.216513,1.676000
1303,9.223646,1.622000
1304,9.230745,1.160000
1305,9.237848,1.774000
1306,9.244944,1.462000
1307,9.252034,1.148000
1308,9.259146,1.820000
1309,9.266309,1.346000
1310,9.273434,1.268000
1311,9.280534,1.806000
1312,9.287627,1.270000
1313,9.294722,1.450000
1314,9.301814,1.760000
1315,9.308914,1.218000
1316,9.316010,1.624000
1317,9.323105,1.678000
1318,9.330198,1.192000
1319,9.337301,1.766000
1320,9.344427,1.536000
1321,9.351545,1.164000
1322,9.358639,1.830000
1323,9.365738,1.394000
1324,9.372838,1.218000
1325,9.379941,1.818000
1326,9.387034,1.290000
1327,9.394130,1.374000
1328,9.401223,1.778000
1329,9.408316,1.232000
1330,9.415410,1.554000
1331,9.422502,1.708000
1332,9.429594,1.192000
1333,9.436686,1.712000
1334,9.443776,1.602000
1335,9.450870,1.186000
1336,9.457963,1.836000
1337,9.465056,1.478000
1338,9.472147,1.216000
1339,9.479245,1.874000
1340,9.486339,1.380000
1341,9.493431,1.342000
1342,9.500525,1.846000
1343,9.507618,1.306000
1344,9.514710,1.528000
1345,9.521802,1.802000
1346,9.528894,1.272000
1347,9.535987,1.744000
1348,9.543079,1.848000
1349,9.550173,1.466000
1350,9.557273,2.070000
1351,9.564366,1.706000
1352,9.571456,1.222000
1353,9.578551,1.768000
1354,9.585647,1.286000
1355,9.592745,1.166000
1356,9.599843,1.808000
1357,9.606938,1.318000
1358,9.614030,1.464000
1359,9.621120,1.872000
1360,9.628218,1.348000
1361,9.635310,1.708000
1362,9.642407,1.850000
1363,9.649502,1.358000
1364,9.656624,1.896000
1365,9.663718,1.744000
1366,9.670818,1.332000
1367,9.677914,1.986000
1368,9.685011,1.602000
1369,9.692106,1.360000
1370,9.699201,2.008000
1371,9.706294,1.516000
1372,9.713387,1.522000
1373,9.720480,2.004000
1374,9.727574,1.470000
1375,9.734673,1.734000
1376,9.741764,1.988000
1377,9.748856,1.476000
1378,9.755948,1.956000
1379,9.763039,1.956000
1380,9.770129,1.526000
1381,9.777220,2.158000
1382,9.784328,1.878000
1383,9.791465,1.566000
1384,9.798556,2.242000
1385,9.805646,1.770000
1386,9.812758,1.652000
1387,9.819854,2.192000
1388,9.826960,1.632000
1389,9.834057,1.754000
1390,9.841150,2.056000
1391,9.848243,1.486000
1392,9.855336,1.844000
1393,9.862432,1.888000
1394,9.869525,1.364000
1395,9.876627,1.904000
1396,9.883809,1.654000
1397,9.890920,1.254000
1398,9.898015,1.898000
1399,9.905115,1.444000
1400,9.912240,1.250000
1401,9.919351,1.846000
1402,9.926445,1.306000
1403,9.933539,1.378000
1404,9.940656,1.772000
1405,9.947829,1.222000
1406,9.954951,1.572000
1407,9.962052,1.716000
1408,9.969156,1.214000
1409,9.976310,1.752000
1410,9.983437,1.580000
1411,9.990539,1.186000
1412,9.997633,1.860000
